time,x,y,z,phi,theta,psi,x_velocity,y_velocity,z_velocity,phi_velocity,theta_velocity,psi_velocity,rotor_speed1,rotor_speed2,rotor_speed3,rotor_speed4
0.0,0.0,0.0,0.0,0.0,0.0,0.0,0.0,0.0,0.0,0.0,0.0,0.0,450.222451538,450.093908889,449.910488942,450.051066069
0.06,2.40912411707e-08,3.0244740123e-08,0.00426419853297,3.52415180886e-05,6.28315395071,0.0,2.47744350139e-06,2.94282773133e-06,0.14213210532,0.00173703360709,-0.00158895707828,0.0,351.638892376,431.928819159,380.465104167,390.430473316
0.12000000000000001,-0.00038742353222,8.01027581262e-06,0.0115544560483,0.00410191043962,0.140961124973,0.0,-0.0236737914142,0.000506555139548,0.100405060576,0.107183729121,0.860339260068,0.0,448.338058381,449.26363521,449.391139635,448.866395924
0.18,-0.00507856829846,0.000152405682043,0.0214851521009,0.0104083284887,0.192615321182,0.0,-0.138187879453,0.00497874732807,0.229716893388,0.100595436734,0.86201128865,0.0,446.606522444,451.19313302,449.092176226,452.881091568
0.23999999999999996,-0.0177706690435,0.000700518426667,0.0390632025287,0.0177445419467,0.245629752681,0.0,-0.290436099308,0.0140024181632,0.354978733358,0.147363371989,0.908476955358,0.0,444.917001465,452.037320279,448.2671358,453.143485813
0.3,-0.0407321613646,0.00195356415029,0.0638435127825,0.028388035217,0.302641840661,0.0,-0.480798728528,0.0287766217499,0.469348519598,0.207377601907,0.984749096084,0.0,443.486563857,453.464876017,446.880248881,452.978498376
0.36000000000000004,-0.076319065387,0.00432080784036,0.0950699811245,0.0432555111393,0.365911407398,0.0,-0.711762235267,0.0514975221506,0.569245705305,0.282051538095,1.09394709969,0.0,441.813131738,455.17356672,444.466174942,452.457680043
0.4200000000000001,-0.12706162746,0.00835234989854,0.131707136801,0.0636985334144,0.438133451162,0.0,-0.986638690651,0.0846630040107,0.648852522332,0.379208844409,1.24128768801,0.0,439.815234833,457.088041826,440.967653908,451.311064375
0.48000000000000015,-0.195712270652,0.0147564253726,0.172305006596,0.0915264508194,0.522476344474,0.0,-1.30948770259,0.131022311162,0.700054181383,0.503642200269,1.4315151876,0.0,437.288532897,458.460960556,436.992015777,449.642473142
0.5400000000000001,-0.28527712247,0.0244030609939,0.214845088556,0.128505158587,0.621852736145,0.0,-1.68455717195,0.193095917093,0.711916930079,0.653647827498,1.66178856041,0.0,434.861492785,460.051721201,431.501601155,446.993884495
0.6000000000000002,-0.398991439602,0.0382797320412,0.256560677914,0.176753511242,0.739038281746,0.0,-2.11502908488,0.272106756467,0.670363359641,0.833825341976,1.93060593801,0.0,432.431934399,461.661188163,424.617945182,443.780669551
0.6600000000000003,-0.540212559498,0.0573757035543,0.293749202375,0.239053597688,0.87642718956,0.0,-2.60149661744,0.366650808539,0.558300437801,1.0514608665,2.23454581079,0.0,430.005459303,463.197092686,416.372268647,439.424177056
0.7200000000000003,-0.712186068107,0.0824660793959,0.321600074413,0.317983687072,1.03584727862,0.0,-3.13927931906,0.47060965221,0.356148608056,1.30522047882,2.56835865047,0.0,427.46196395,464.201021872,406.990313117,434.236879178
0.7800000000000004,-0.9176666748,0.11375665126,0.334139264394,0.416000217736,1.2179881408,0.0,-3.71636547958,0.57080299254,0.0453363000201,1.59382115323,2.92200512233,0.0,425.670285427,464.722323761,395.849512101,428.125442333
0.8400000000000004,-1.15843775817,0.15042161625,0.324451983408,0.535999852888,1.42144420942,0.0,-4.31231754489,0.646025695234,-0.385901875103,1.92035413913,3.27622104085,0.0,424.004687487,464.992856789,383.270485982,421.134361847
0.9000000000000005,-1.43483076546,0.190159899344,0.285295804459,0.680480183036,1.64516313852,0.0,-4.8996556244,0.668653905434,-0.935844106596,2.28295798021,3.62309726511,0.0,423.060648726,463.934756954,370.404537312,412.86303278
0.9600000000000005,-1.74544035516,0.228926047911,0.210054908756,0.849110293861,1.8852283442,0.0,-5.44878210955,0.609039230014,-1.58477726465,2.66206389246,3.935600861,0.0,422.715600977,461.719853882,356.673524791,403.167594076
1.0200000000000005,-2.08715844812,0.261001108432,0.0938440353746,1.0408070551,2.13775131341,0.0,-5.93316181576,0.441816346665,-2.29525170373,3.04321078643,4.19358000297,0.0,422.473000928,458.95152038,342.733805987,392.540818485
0.0,0.0,0.0,0.0,0.0,0.0,0.0,0.0,0.0,0.0,0.0,0.0,0.0,449.90802013,450.216846471,450.196070592,450.094658031
0.06,-7.18357469169e-08,-1.92934058574e-08,0.00426755174847,6.2831604994,7.87570436396e-05,0.0,-6.78933551361e-06,-1.97186855471e-06,0.142243868201,-0.00125355866483,0.00381666873183,0.0,579.114167128,479.543666335,474.458695045,470.984194936
0.12000000000000001,-0.00173480595827,-3.86758493278e-07,0.0223908741587,6.28252227276,0.318031596899,0.0,-0.102612368749,-3.4835046516e-05,0.45678008749,-0.0463503845386,-1.43835478233,0.0,574.759868778,478.606561114,472.842326449,468.44827485
0.18,-0.0173756895484,-3.05901609073e-05,0.0574872450505,6.27914265051,0.504554522222,0.0,-0.444094317426,-0.00130271984547,0.702586012334,-0.103091066015,-2.77976625513,0.0,550.635556321,476.952768545,474.371613889,426.979288488
0.23999999999999996,-0.0561495966008,2.57747153923e-06,0.104193165081,0.0350847309593,0.45783530096,0.0,-0.844561028151,0.00739411970228,0.855970420073,-0.688063463905,-3.6915883324,0.0,439.217666224,458.288774236,446.08972075,459.361702386
0.3,-0.115791108746,0.00101046664896,0.157813245166,0.00204107232501,0.271684030834,0.0,-1.12468627437,0.022931414386,0.939197221862,-0.517922663699,-3.28843158345,0.0,439.240512101,460.019551201,443.475355261,455.186344437
0.36000000000000004,-0.18847561314,0.00232339392434,0.217599824526,6.26072113598,0.107541375537,0.0,-1.28072567921,0.018089154755,1.05753042553,-0.370625179573,-2.89942058897,0.0,551.843832382,479.39988905,469.666493972,422.342146973
0.4200000000000001,-0.267886898299,0.00299098917066,0.288372879769,6.28206583376,0.0471748407679,0.0,-1.3604845192,0.00754115420962,1.30195051013,-0.945712635946,-3.78815780937,0.0,551.54814749,479.015383423,467.399931496,416.907316865
0.48000000000000015,-0.350227592368,0.00341968881336,0.373693328821,6.27241600637,6.1948985687,0.0,-1.3691656753,0.0063733477074,1.54211172498,-1.54107933557,-4.5940493345,0.0,395.991675024,487.580743186,427.809230765,326.634996893
0.5400000000000001,-0.431011957133,0.00385790450641,0.466836521731,0.0432626248146,6.2464753133,0.0,-1.32800425253,0.0142798313641,1.5627670156,-2.54115157505,-3.25361992882,0.0,365.948117361,546.5078981,402.018607887,555.448283439
0.6000000000000002,-0.513220361467,0.00814876791315,0.566158630226,0.643975737294,0.734359969269,0.0,-1.499741984,0.18799161054,1.71247853759,-0.475315457911,-0.906264864894,0.0,441.017242135,465.705967183,421.306104102,413.141604429
0.6600000000000003,-0.616595874663,0.0283696600048,0.663332188087,0.61500377551,0.702942380075,0.0,-1.94315611715,0.485498136094,1.52923330828,-0.565542928955,-0.590541772229,0.0,436.902767919,480.135627285,414.325108034,422.715686555
0.7200000000000003,-0.746385887918,0.0663404835289,0.750113406627,0.584747163162,0.728264923569,0.0,-2.38426760046,0.777204500025,1.36322741466,-0.465485973437,-0.043934501337,0.0,432.726736016,481.875664205,407.924981538,418.394489119
0.7800000000000004,-0.902861802599,0.121010823159,0.826512774712,0.561688017962,0.801283318043,0.0,-2.83581589067,1.0408677533,1.18003943195,-0.344422585228,0.572421527273,0.0,428.061483877,483.882044411,400.18218073,415.590089119
0.8400000000000004,-1.08724313554,0.190439819547,0.890817546874,0.549521199729,0.928808130109,0.0,-3.31704961642,1.26766018261,0.955947213258,-0.170848908977,1.26226767277,0.0,423.348480939,485.938070485,391.151778561,413.782533453
0.9000000000000005,-1.30171187834,0.272107956523,0.939701961106,0.554705954623,1.11353225832,0.0,-3.83966269841,1.44700768902,0.661040232575,0.0793123391778,2.01260654023,0.0,418.704133929,488.249537685,380.307808753,413.260860854
0.9600000000000005,-1.54874776077,0.362779338847,0.967929280729,0.588034980209,1.35608738782,0.0,-4.40094187142,1.56523703011,0.262231482424,0.437609682474,2.80870953671,0.0,414.422375843,490.05524642,369.379298174,412.858523624
1.0200000000000005,-1.83010264122,0.458222889294,0.968376441464,0.659140807518,1.65106098723,0.0,-4.97886609986,1.60221296625,-0.268293922537,0.899623740074,3.62058224468,0.0,411.866987221,491.411962806,358.086210643,411.67659748
1.0800000000000005,-2.14563500971,0.552709779812,0.932775516465,0.774683508256,1.98699036081,0.0,-5.53290563764,1.52784209078,-0.938638533421,1.44999149909,4.40500637518,0.0,410.582272033,491.514668264,346.832867835,409.182953469
1.1400000000000006,-2.49229622516,0.638438823508,0.853314360559,0.936091898929,2.35096339608,0.0,-6.00729288115,1.30423593026,-1.72382869208,2.06027355666,5.11871269191,0.0,410.009582572,490.0236502,335.926108479,404.156166032
1.2000000000000006,-2.86331815029,0.705545660276,0.724927626556,1.13731648635,2.73276182446,0.0,-6.33420192074,0.905317019881,-2.5565299675,2.68447110387,5.72856683078,0.0,409.546195723,486.817134819,324.879456277,396.357076627
1.2600000000000007,-3.24780081955,0.744087928554,0.547738392113,1.36984734823,3.12617170596,0.0,-6.44745480783,0.36255123715,-3.33462375189,3.28096132955,6.21555505926,0.0,409.081703228,482.218843813,313.703518352,385.195644062
1.3200000000000007,-3.63198497306,0.748741929896,0.327800883509,1.6235527141,3.52795215252,0.0,-6.3260344016,-0.201122628959,-3.97392500177,3.80676444721,6.57352267316,0.0,408.141953357,476.873904049,303.379997456,372.525631832
1.3800000000000008,-4.00330027768,0.722968921664,0.0737189554486,1.8919871499,3.93721589777,0.0,-6.03178481137,-0.632586898546,-4.48082119778,4.23907537063,6.81581172421,0.0,407.322226763,471.973414826,294.732702064,358.499437805
0.0,0.0,0.0,0.0,0.0,0.0,0.0,0.0,0.0,0.0,0.0,0.0,0.0,450.305594042,450.063810723,449.892874255,450.126879667
0.06,4.24917422007e-08,5.26140103882e-08,0.00426690865748,5.9223431693e-05,6.28312702094,0.0,4.49094676411e-06,5.03510928115e-06,0.142222433934,0.00289165384742,-0.00298892720519,0.0,351.584984736,431.791937794,379.793261386,390.579290943
0.12000000000000001,-0.000385262722251,9.81467049069e-06,0.011547779769,0.00468202211643,0.140515929581,0.0,-0.0235615227054,0.000601616025374,0.100005477251,0.116941150444,0.857851658625,0.0,448.358675436,449.472217751,448.898949104,448.639284307
0.18,-0.00505774501085,0.000174725439493,0.0214442002405,0.0116334007397,0.192070519639,0.0,-0.137662422021,0.00563165776473,0.22897833792,0.113595447223,0.86188207845,0.0,446.722501091,451.572872577,448.494664502,452.554105681
0.23999999999999996,-0.0177047749328,0.000791541056663,0.0389697281238,0.0198673712026,0.245195048457,0.0,-0.289465449088,0.0157289553733,0.353966117423,0.163618991862,0.911608918349,0.0,445.460204976,452.596849257,447.597783759,453.216013595
0.3,-0.0406027280278,0.00219806647787,0.063702458245,0.0318621253824,0.302405564463,0.0,-0.479675742045,0.0322937860455,0.4687651823,0.23268095051,0.988111029367,0.0,443.743692986,453.533355213,446.180609233,453.391168214
0.36000000000000004,-0.0761180951616,0.00485581856443,0.0948938460033,0.0488859497848,0.365745071545,0.0,-0.710510870077,0.0578607696284,0.568644457321,0.320876495681,1.09496077731,0.0,441.747118827,454.833508184,444.150893272,452.515909171
0.4200000000000001,-0.126775818259,0.00939102305604,0.13147547127,0.071883149498,0.437791517919,0.0,-0.98504354316,0.0953158731763,0.647587304249,0.422253832376,1.23885901431,0.0,439.925812107,456.483419856,440.992728381,451.115973172
0.48000000000000015,-0.195314379006,0.0166002208648,0.171975219379,0.102098969506,0.521271724309,0.0,-1.3072696146,0.147399165722,0.698055956243,0.543483402497,1.42035669703,0.0,437.431589618,458.198551583,437.137811216,448.816564588
0.5400000000000001,-0.284710728319,0.0274273263623,0.214373740332,0.140621055244,0.619544243767,0.0,-1.68106545005,0.216157679226,0.709229390791,0.681021105892,1.64611836756,0.0,435.217741324,459.857139158,431.796906483,446.180236328
0.6000000000000002,-0.398167140101,0.0428954879359,0.25592454523,0.189430052052,0.735147855123,0.0,-2.10981843662,0.302075217584,0.667642684202,0.84729327968,1.90904562836,0.0,432.571512313,461.331791375,425.168048905,443.173261787
0.6600000000000003,-0.539009254552,0.0639851695751,0.292969230895,0.251272382561,0.87068837791,0.0,-2.59399054585,0.403032286779,0.556373985282,1.05091125036,2.2084011632,0.0,429.971166425,462.802661302,417.063434743,439.193648872
0.7200000000000003,-0.710458716137,0.0914282167372,0.320761204769,0.329082195128,1.02815578697,0.0,-3.12929394457,0.512519744329,0.356310301851,1.29411239902,2.53929416407,0.0,427.657447219,463.814058246,407.370759783,434.449412313
0.7800000000000004,-0.915275732116,0.125378540726,0.333413049329,0.426282093909,1.20786044955,0.0,-3.70427846472,0.617493361273,0.0491737229353,1.58142415678,2.88791312563,0.0,425.65952779,464.701594923,396.002372221,428.667459179
0.8400000000000004,-1.15528263531,0.164980581616,0.324105153582,0.546211935888,1.40962237712,0.0,-4.29910124732,0.697227977752,-0.376935918828,1.91314833759,3.24467052277,0.0,423.64722602,465.094567256,384.079506696,421.762577926
0.9000000000000005,-1.4308949582,0.207922226137,0.285659453271,0.690140599536,1.63255322547,0.0,-4.88709381568,0.724197047014,-0.921084916216,2.27490853287,3.59959651778,0.0,422.915108771,464.512113991,371.300573448,413.729109062
0.9600000000000005,-1.74083656065,0.250138884046,0.211472564079,0.85846303961,1.87259946992,0.0,-5.4393228715,0.668427117385,-1.56446841888,2.65521052327,3.92310143547,0.0,422.819234223,463.06484538,357.310139648,404.160293753
1.0200000000000005,-2.08213753678,0.285862929434,0.0966230180435,1.05051046441,2.12618636244,0.0,-5.92888938259,0.503855138279,-2.27028312175,3.04149684412,4.1976750715,0.0,422.776952035,460.186944403,343.608446466,393.230222093
0.0,0.0,0.0,0.0,0.0,0.0,0.0,0.0,0.0,0.0,0.0,0.0,0.0,450.215173313,449.935788853,449.952093715,450.133464238
0.06,4.79958617212e-08,3.97896466028e-08,0.00426319066168,4.56627515826e-05,6.28311823987,0.0,5.12219362103e-06,3.8430268736e-06,0.142098512859,0.00224140100228,-0.00345291080746,0.0,351.503438442,431.742091504,380.07618973,390.257729443
0.12000000000000001,-0.00038507817644,8.59265582929e-06,0.0115329397291,0.00426519186997,0.140540300391,0.0,-0.0235562795734,0.000535038223221,0.0997587172772,0.109895982974,0.857586468435,0.0,448.408169248,449.230838449,449.066224399,448.694639546
0.18,-0.0050577517414,0.00015883044162,0.021415299273,0.0107684746067,0.192004860676,0.0,-0.137668445959,0.0051634816984,0.228757998305,0.105190389781,0.858062564804,0.0,446.735159538,451.394390203,449.027485099,452.393894226
0.23999999999999996,-0.0177036413361,0.000726426113057,0.0389332770321,0.0181975769611,0.244818104099,0.0,-0.289392330105,0.0144820364875,0.353943781929,0.146693373063,0.905528110647,0.0,445.361280966,452.482712071,448.167838228,453.163346462
0.3,-0.0405896587813,0.0020182849665,0.0636751148032,0.0288600512357,0.301661081732,0.0,-0.479315546407,0.0295918336762,0.469109025817,0.208177297485,0.981972474491,0.0,443.635664951,453.421091131,447.235152385,453.226931222
0.36000000000000004,-0.076071545582,0.00444500240361,0.0949102826127,0.043718840188,0.364636838836,0.0,-0.70972440957,0.0526662288166,0.569788886745,0.281583589756,1.08890549878,0.0,441.687289065,454.51825785,445.053191788,452.894592894
0.4200000000000001,-0.126665853275,0.00855645379555,0.131596242896,0.0640436298761,0.436117310263,0.0,-0.983673827156,0.0861501883501,0.649973689825,0.377011820294,1.22980788099,0.0,439.455326939,456.140577919,441.713119602,451.663516854
0.48000000000000015,-0.195093063236,0.0150563760385,0.172277431835,0.091458860815,0.519189852367,0.0,-1.30489931313,0.132702428352,0.70179091841,0.496823288354,1.41298088399,0.0,437.376257393,457.81960713,437.268158746,449.418084313
0.5400000000000001,-0.28431043185,0.0248031163201,0.214951595588,0.127616960045,0.616663393244,0.0,-1.67741929632,0.194707059306,0.714797315142,0.64087422582,1.63498587853,0.0,434.694590998,459.444083572,432.004043112,446.55377175
0.6000000000000002,-0.397493555596,0.0387651399303,0.256899712895,0.174233785276,0.731763230817,0.0,-2.10433700082,0.273270327009,0.675446823083,0.810007973938,1.89943499228,0.0,432.122167877,461.053118862,425.308777753,443.320209947
0.6600000000000003,-0.537950094279,0.0579062630311,0.294499568923,0.23392812063,0.867000801278,0.0,-2.58663630261,0.366930012882,0.56720112187,1.01464750165,2.2010661,0.0,429.804528589,462.341123219,417.288371256,438.870714534
0.7200000000000003,-0.708900943582,0.0829813093862,0.32304801959,0.309025086947,1.02358954265,0.0,-3.12003860904,0.469835361989,0.370861611304,1.2525066413,2.52858959564,0.0,427.639608005,463.458033834,407.618600305,433.995605173
0.7800000000000004,-0.913113847721,0.114212021569,0.336709938641,0.40297085995,1.20217820347,0.0,-3.69344476541,0.569815315541,0.068417637335,1.5332339311,2.87372916272,0.0,425.647238458,464.490451628,396.126788548,428.668146125
0.8400000000000004,-1.15244661305,0.150869791182,0.328710783798,0.520109851093,1.40289709604,0.0,-4.28755794403,0.647224644511,-0.352587853454,1.86574212434,3.22911167797,0.0,424.146832043,464.514485349,383.862138402,421.655937103
0.9000000000000005,-1.42735561085,0.190830837318,0.29185888018,0.661691367179,1.62332437877,0.0,-4.87529408853,0.675473356238,-0.892439721707,2.23103367095,3.57257408015,0.0,423.591203727,463.742486787,370.912600412,413.546599982
0.9600000000000005,-1.73659552158,0.230273111877,0.219479764671,0.82805397348,1.85992178468,0.0,-5.42787074096,0.625374248939,-1.53317123694,2.61590028569,3.88157999078,0.0,423.524309087,461.789914359,357.359904861,404.526028811
1.0200000000000005,-2.07725596206,0.263697165389,0.106514807516,1.01868844782,2.10892097756,0.0,-5.9192306381,0.470953750191,-2.23928394823,3.00849625056,4.13691539839,0.0,423.568589785,458.820326336,343.340398908,393.580600439
0.0,0.0,0.0,0.0,0.0,0.0,0.0,0.0,0.0,0.0,0.0,0.0,0.0,450.086144664,450.074669192,449.825543303,449.9427191
0.06,2.28830205952e-09,2.49114761765e-08,0.00425570421809,2.92988568544e-05,6.28318247415,0.0,2.29374297623e-07,2.43446785431e-06,0.14184898915,0.00144756638232,-0.000141827999347,0.0,351.354666511,431.432223833,379.807130836,390.270402617
0.12000000000000001,-0.000384736256784,8.43313854267e-06,0.0114952300868,0.00436705952611,0.1401129061,0.0,-0.023490661117,0.000538568977703,0.099003918864,0.112044029651,0.858645742634,0.0,448.135298713,449.002823696,448.639230402,448.992968515
0.18,-0.00504224630817,0.000161653883192,0.0213185402004,0.0111771140632,0.191651568434,0.0,-0.137232493641,0.0052819019625,0.22754606459,0.116263701583,0.859640075599,0.0,446.727085563,451.187590601,448.473482383,452.215703927
0.23999999999999996,-0.0176499856809,0.000747824541722,0.0387426440531,0.0194289918001,0.244471358454,0.0,-0.288554590985,0.0150633650825,0.352027858126,0.162340776161,0.904624671513,0.0,445.131615394,452.121287761,447.65031323,453.018261501
0.3,-0.0404703612651,0.00210414596048,0.0633416116928,0.0312154327692,0.30118557293,0.0,-0.477946241191,0.0312678156466,0.466266822883,0.228308100565,0.979424146433,0.0,443.431178971,453.351556076,446.26895485,452.875704229
0.36000000000000004,-0.0758481478561,0.00468461111024,0.0943714368896,0.0476178865232,0.364102428328,0.0,-0.707606504162,0.0562567077308,0.565787786032,0.309054902754,1.08803479148,0.0,441.558319349,455.249481822,443.993640578,452.22612447
0.4200000000000001,-0.126296830933,0.00909568607303,0.130792179926,0.0698215327781,0.436261618662,0.0,-0.980987773007,0.0927117747238,0.645100067554,0.408862198512,1.23954946919,0.0,439.503160202,456.613199865,440.793931632,450.697976466
0.48000000000000015,-0.194555017021,0.0161052145919,0.171140863285,0.0990776899871,0.52032508929,0.0,-1.3020279178,0.1432680689,0.69551194288,0.527493765247,1.42767321548,0.0,437.232183066,458.216454632,437.209539816,449.036071053
